Data from Reflection_16.txt Node
Date: Thu Oct 13 20:36:37 CEST 2022
User: Ocean Optics
Spectrometer: QEP02356
Trigger mode: 4
Integration Time (sec): 1.400000E0
Scans to average: 1
Electric dark correction enabled: true
Nonlinearity correction enabled: true
Boxcar width: 0
XAxis mode: Wavelengths
Number of Pixels in Spectrum: 1044
>>>>>Begin Spectral Data<<<<<
194.596	-35.71426214
195.4	135.71430927
196.203	250.0001822
197.007	155.26327103
197.81	21.62462277
198.613	21.42928618
199.417	24.71343399
200.22	27.52150277
201.023	34.32098239
201.826	25.21016528
202.629	27.00544754
203.432	27.84801237
204.235	24.3074488
205.038	29.84091284
205.84	33.66819182
206.643	32.36204888
207.445	32.72718472
208.248	30.6462192
209.05	27.42468531
209.853	30.19104407
210.655	31.7970498
211.457	35.24114852
212.259	32.16537246
213.061	34.72857967
213.863	35.18651925
214.665	33.58866884
215.467	32.52121498
216.269	36.56359795
217.07	38.27807913
217.872	34.38003041
218.674	33.59227403
219.475	30.30606498
220.277	33.43759885
221.078	27.50421724
221.879	27.55469954
222.68	29.59304955
223.481	37.83399604
224.283	33.61197281
225.084	28.84495435
225.884	32.47426571
226.685	30.32100313
227.486	34.07850305
228.287	30.9296716
229.087	35.29891713
229.888	36.40427512
230.688	33.27575803
231.489	35.241149
232.289	33.11346617
233.089	34.85341173
233.89	34.08940976
234.69	29.73583036
235.49	32.7810798
236.29	34.87527146
237.09	36.02970551
237.89	32.01311932
238.689	31.21410358
239.489	32.65078435
240.289	34.65201108
241.088	33.4346693
241.888	30.59296993
242.687	30.8853583
243.486	31.563278
244.286	34.14914154
245.085	32.94315216
245.884	29.54956774
246.683	34.81461704
247.482	28.85462883
248.281	30.18132392
249.08	27.27951204
249.878	30.65473027
250.677	27.57113786
251.476	26.64531226
252.274	26.53578623
253.073	27.12790709
253.871	25.72510488
254.67	21.66984895
255.468	24.90295957
256.266	21.74297805
257.064	19.77745266
257.862	23.22264953
258.66	20.5187854
259.458	21.50697426
260.256	21.28682939
261.054	18.53136959
261.851	20.42145991
262.649	16.94494076
263.446	22.55970158
264.244	16.54444936
265.041	20.7683002
265.839	22.49799406
266.636	17.77994345
267.433	17.45851773
268.23	19.19790474
269.027	17.62000599
269.824	15.30468678
270.621	17.74291552
271.418	16.4316871
272.215	17.41566456
273.011	15.34459721
273.808	12.39396208
274.604	15.85461465
275.401	14.24286784
276.197	13.03891452
276.994	12.96986443
277.79	13.84902082
278.586	11.42002711
279.382	13.17800531
280.178	12.78292805
280.974	14.18600255
281.77	13.99921646
282.566	11.70574576
283.361	11.29817045
284.157	11.01602856
284.953	11.46402657
285.748	11.59636566
286.544	8.93459484
287.339	10.4830285
288.134	10.92391289
288.93	9.63212632
289.725	10.07130106
290.52	10.44974246
291.315	9.5292753
292.11	9.3855983
292.905	9.46100825
293.699	9.45161738
294.494	9.5089775
295.289	8.77863148
296.083	9.399593
296.878	9.50063743
297.672	9.41859982
298.467	8.93829977
299.261	9.08758092
300.055	8.98926707
300.849	8.90495455
301.643	8.88075876
302.437	9.03902608
303.231	9.1329728
304.025	9.05574147
304.819	8.9831269
305.612	9.06520395
306.406	9.00247095
307.2	8.9039877
307.993	8.61689414
308.786	8.59568405
309.58	8.33011962
310.373	8.20696854
311.166	8.53580948
311.959	8.23069139
312.752	8.07503735
313.545	8.034486
314.338	8.06727295
315.131	8.10540342
315.924	8.02725622
316.716	8.00934061
317.509	7.89402572
318.302	7.76605616
319.094	7.98271709
319.886	7.8875864
320.679	7.85924551
321.471	7.76313841
322.263	7.67654106
323.055	7.92732277
323.847	7.90678127
324.639	7.86571295
325.431	7.76068667
326.223	7.80527627
327.015	7.78439251
327.806	7.86186215
328.598	7.685622
329.389	7.76217938
330.181	7.99705631
330.972	7.87681059
331.763	7.80091257
332.555	7.86515323
333.346	7.86405863
334.137	7.83605813
334.928	8.02188904
335.719	7.94503711
336.51	7.86433239
337.3	7.92642143
338.091	7.90857005
338.882	7.72631987
339.672	7.80720958
340.463	7.76884251
341.253	7.84893911
342.043	7.75178311
342.834	7.64659788
343.624	7.73713589
344.414	7.77496027
345.204	7.80348992
345.994	7.7544047
346.784	7.52398144
347.574	7.80375451
348.363	7.76728222
349.153	7.6944263
349.943	7.89251129
350.732	7.7082968
351.521	7.51771919
352.311	7.48270718
353.1	7.64445276
353.889	7.66429684
354.678	7.49181338
355.468	7.48641254
356.257	7.5741475
357.045	7.79131995
357.834	7.53848105
358.623	7.71025762
359.412	7.66181887
360.2	7.62590368
360.989	7.65685891
361.777	7.62854731
362.566	7.57565093
363.354	7.70135663
364.142	7.60708227
364.931	7.57029388
365.719	7.52075521
366.507	7.69521042
367.295	7.47521997
368.083	7.58537519
368.87	7.63954934
369.658	7.66253981
370.446	7.76780949
371.233	7.68305732
372.021	7.66663806
372.808	7.8185358
373.596	7.8010007
374.383	7.68059264
375.17	7.81727349
375.957	7.80770403
376.745	7.81698699
377.532	7.89281014
378.318	7.94039678
379.105	7.88639118
379.892	7.90521048
380.679	7.99064491
381.465	8.00027728
382.252	7.96527123
383.038	8.02526377
383.825	7.93480993
384.611	8.06306081
385.397	7.97693358
386.184	8.01376608
386.97	8.05361575
387.756	8.10679285
388.542	8.07578579
389.328	8.27222567
390.113	8.04247453
390.899	8.08633824
391.685	8.1772354
392.47	8.19369339
393.256	8.35180578
394.041	8.27972723
394.827	8.34550902
395.612	8.36047736
396.397	8.36197744
397.182	8.37032586
397.967	8.34697022
398.752	8.44656052
399.537	8.42453775
400.322	8.4652359
401.107	8.49983391
401.891	8.49673621
402.676	8.58239994
403.461	8.60100104
404.245	8.58610404
405.029	8.72486624
405.814	8.70600414
406.598	8.80215033
407.382	8.7700501
408.166	8.77417165
408.95	8.82640715
409.734	8.85093692
410.518	8.86051875
411.302	8.87453413
412.086	8.98566791
412.869	8.96368153
413.653	9.07931243
414.436	9.16937908
415.22	9.18726915
416.003	9.31052842
416.786	9.29969166
417.569	9.28705502
418.353	9.31142803
419.136	9.34316234
419.919	9.50179764
420.701	9.5125469
421.484	9.5769396
422.267	9.59294729
423.05	9.67177449
423.832	9.67567707
424.615	9.81576283
425.397	9.87128071
426.18	10.02041235
426.962	10.00421341
427.744	10.1305395
428.526	10.08540069
429.308	10.34341145
430.09	10.35110377
430.872	10.41247674
431.654	10.46288525
432.436	10.59991506
433.217	10.68493972
433.999	10.77818955
434.781	10.96463703
435.562	10.99996296
436.343	11.11372606
437.125	11.19207472
437.906	11.4465489
438.687	11.43856379
439.468	11.53726973
440.249	11.7602437
441.03	11.76245331
441.811	11.96083744
442.592	11.9201335
443.372	12.13044822
444.153	12.33022789
444.934	12.45845086
445.714	12.49514087
446.494	12.739017
447.275	12.95604926
448.055	13.07555297
448.835	13.19977008
449.615	13.44301677
450.395	13.76788452
451.175	13.824472
451.955	13.90686305
452.735	14.16568879
453.515	14.42563154
454.294	14.63942823
455.074	14.82385981
455.853	15.16101328
456.633	15.32224471
457.412	15.61893585
458.191	15.85677554
458.971	16.23558635
459.75	16.43987893
460.529	16.77106827
461.308	17.0057582
462.087	17.42989431
462.865	17.67582971
463.644	18.04007317
464.423	18.31700137
465.201	18.60560778
465.98	19.03571633
466.758	19.47764107
467.537	19.9533832
468.315	20.15412675
469.093	20.32623685
469.871	20.63303149
470.649	21.04298005
471.427	21.4611971
472.205	21.77081292
472.983	22.17081478
473.761	22.58199182
474.538	22.9402072
475.316	23.17009581
476.093	23.53719085
476.871	23.99205501
477.648	24.19019075
478.426	24.72242856
479.203	25.1750419
479.98	25.60597232
480.757	25.88930539
481.534	26.34048194
482.311	26.67595612
483.088	26.97764238
483.864	27.29761291
484.641	27.71131767
485.418	28.04862962
486.194	28.50350265
486.971	28.61905276
487.747	29.05034719
488.523	29.36820605
489.3	29.65945674
490.076	29.85883077
490.852	30.26461753
491.628	30.38138974
492.404	30.72547772
493.179	30.95097811
493.955	31.01084359
494.731	31.33409589
495.506	31.3266135
496.282	31.61433563
497.057	31.56406978
497.833	31.79585238
498.608	32.01389808
499.383	32.00030995
500.159	32.0893627
500.934	32.13081516
501.709	32.32889085
502.483	32.20576931
503.258	32.2162136
504.033	32.26014287
504.808	32.30696317
505.582	32.1942649
506.357	32.15922037
507.131	31.91881009
507.906	31.99786346
508.68	31.79270647
509.454	31.60816385
510.228	31.74429983
511.002	31.53577639
511.776	31.50129339
512.55	31.43257631
513.324	31.32991699
514.098	31.14689478
514.872	31.03016634
515.645	30.80385569
516.419	30.52068702
517.192	30.33612367
517.966	30.17492136
518.739	30.09426946
519.512	29.82275094
520.285	29.70944258
521.058	29.37817676
521.831	29.25259467
522.604	28.9884518
523.377	28.85661331
524.15	28.7049683
524.923	28.42371043
525.695	28.18266119
526.468	27.87600855
527.24	27.72578232
528.012	27.45426008
528.785	27.16094762
529.557	26.86103083
530.329	26.63760771
531.101	26.30929408
531.873	25.93345601
532.645	25.8594768
533.417	25.52858334
534.189	25.36548475
534.96	24.94812865
535.732	24.7328351
536.503	24.35664378
537.275	24.10592971
538.046	23.71613091
538.818	23.57717824
539.589	23.3515443
540.36	22.96627667
541.131	22.60005503
541.902	22.42959174
542.673	22.07592932
543.444	21.71202422
544.214	21.35096087
544.985	21.06000519
545.756	20.74725173
546.526	20.42417533
547.297	20.03116529
548.067	19.80095653
548.837	19.54263157
549.608	19.22841739
550.378	18.87846461
551.148	18.55314834
551.918	18.28488919
552.688	18.05718877
553.457	17.77618697
554.227	17.44567138
554.997	17.21460476
555.766	16.8853264
556.536	16.60866865
557.305	16.35764885
558.075	16.05139432
558.844	15.78400142
559.613	15.47982557
560.382	15.32017132
561.151	14.95619193
561.92	14.85983444
562.689	14.50311807
563.458	14.3206602
564.227	14.05040369
564.995	13.89311488
565.764	13.6379595
566.532	13.43633333
567.301	13.08469852
568.069	12.99205056
568.837	12.74418983
569.606	12.60163075
570.374	12.36973721
571.142	12.14891197
571.91	11.95203125
572.678	11.77160407
573.445	11.56476868
574.213	11.41831232
574.981	11.14606444
575.748	11.02249902
576.516	10.81919046
577.283	10.58992459
578.05	10.47781354
578.818	10.2255881
579.585	10.04596826
580.352	9.89019082
581.119	9.67539361
581.886	9.63461653
582.653	9.47804564
583.419	9.25036752
584.186	9.14148291
584.953	9.02040605
585.719	8.84118564
586.486	8.71615021
587.252	8.58486885
588.018	8.38640247
588.785	8.31382395
589.551	8.14463193
590.317	8.06073447
591.083	7.89883055
591.849	7.77961165
592.615	7.64777585
593.38	7.50034975
594.146	7.44801745
594.912	7.31271252
595.677	7.17184082
596.443	7.07602998
597.208	6.98199133
597.973	6.91068335
598.738	6.85993593
599.504	6.77382712
600.269	6.69095427
601.034	6.63062546
601.798	6.50377834
602.563	6.48625961
603.328	6.42317506
604.093	6.36264774
604.857	6.29256984
605.622	6.24153413
606.386	6.19754876
607.151	6.19837421
607.915	6.1538253
608.679	6.1312329
609.443	6.06199383
610.207	5.98098324
610.971	6.01873895
611.735	5.97028174
612.499	5.95327244
613.262	5.88149456
614.026	5.90582166
614.79	5.90646008
615.553	5.89228694
616.316	5.81427538
617.08	5.82641735
617.843	5.76454844
618.606	5.80629388
619.369	5.80064751
620.132	5.76399975
620.895	5.74058841
621.658	5.75620491
622.421	5.66854033
623.183	5.7509894
623.946	5.69339795
624.709	5.71532504
625.471	5.70648375
626.233	5.65090992
626.996	5.67277223
627.758	5.64091969
628.52	5.64222713
629.282	5.68269971
630.044	5.63897717
630.806	5.63001046
631.568	5.60111045
632.329	5.64978781
633.091	5.58696401
633.853	5.64669055
634.614	5.54696362
635.376	5.59787097
636.137	5.54717901
636.898	5.59735918
637.659	5.57136353
638.42	5.56031829
639.181	5.56123891
639.942	5.57746061
640.703	5.55272273
641.464	5.57377982
642.225	5.58668989
642.985	5.56583289
643.746	5.52959678
644.506	5.55156484
645.267	5.58097538
646.027	5.57487396
646.787	5.61320101
647.547	5.54562283
648.307	5.59270398
649.067	5.5659892
649.827	5.58624088
650.587	5.62001331
651.347	5.58390659
652.106	5.60479887
652.866	5.62510341
653.626	5.58874492
654.385	5.63403654
655.144	5.67214869
655.904	5.6375345
656.663	5.6659357
657.422	5.67891105
658.181	5.6660888
658.94	5.72825859
659.699	5.69115965
660.458	5.759528
661.216	5.73384475
661.975	5.76581637
662.733	5.7512463
663.492	5.78363982
664.25	5.74281353
665.009	5.79302004
665.767	5.79933272
666.525	5.79844423
667.283	5.86509174
668.041	5.83591084
668.799	5.90846904
669.557	5.9171705
670.314	5.92511583
671.072	5.95090348
671.83	5.91454776
672.587	5.98243168
673.345	6.00908227
674.102	6.02033468
674.859	6.02671847
675.616	6.0532715
676.374	6.01371937
677.131	6.11320487
677.888	6.08316039
678.644	6.13884311
679.401	6.13541392
680.158	6.13897251
680.914	6.12169973
681.671	6.14389529
682.428	6.18524435
683.184	6.16450253
683.94	6.20885668
684.696	6.2083129
685.453	6.17109142
686.209	6.2539704
686.965	6.26695845
687.721	6.27910574
688.476	6.26258643
689.232	6.31158854
689.988	6.45009814
690.743	6.34983515
691.499	6.33771901
692.254	6.34558986
693.01	6.34582942
693.765	6.30909568
694.52	6.38443287
695.275	6.39295446
696.03	6.40624019
696.785	6.4146065
697.54	6.39325923
698.295	6.44561845
699.049	6.37775814
699.804	6.37385404
700.559	6.40069198
701.313	6.38815857
702.067	6.40489269
702.822	6.41557141
703.576	6.46446835
704.33	6.42057843
705.084	6.44736683
705.838	6.46726256
706.592	6.42084757
707.346	6.47669165
708.099	6.47929325
708.853	6.43639902
709.607	6.41813529
710.36	6.41434916
711.113	6.43886785
711.867	6.42301547
712.62	6.40498207
713.373	6.40291048
714.126	6.3727281
714.879	6.37445873
715.632	6.38833697
716.385	6.39665121
717.138	6.38866067
717.89	6.40753906
718.643	6.37361842
719.396	6.40897006
720.148	6.4634814
720.9	6.44165132
721.653	6.45442572
722.405	6.41374844
723.157	6.46821628
723.909	6.46456569
724.661	6.48046667
725.413	6.47466121
726.165	6.53226842
726.916	6.52470555
727.668	6.61248799
728.419	6.63322595
729.171	6.5823882
729.922	6.58922432
730.673	6.60900021
731.425	6.6206582
732.176	6.6263869
732.927	6.68997401
733.678	6.70198522
734.429	6.76344897
735.18	6.73507679
735.93	6.78234392
736.681	6.83651694
737.431	6.8536089
738.182	6.91252065
738.932	6.91377909
739.683	7.02402209
740.433	7.02425176
741.183	7.11353058
741.933	7.12187325
742.683	7.18787025
743.433	7.11777904
744.183	7.13863182
744.933	7.31658063
745.682	7.27175595
746.432	7.33950841
747.181	7.46275993
747.931	7.46886172
748.68	7.54241733
749.429	7.65901506
750.179	7.60039904
750.928	7.63960007
751.677	7.74958423
752.426	7.76128665
753.174	7.84470611
753.923	7.82591066
754.672	7.83982318
755.42	7.95484582
756.169	8.09509331
756.917	8.12997837
757.666	8.09204673
758.414	8.22592808
759.162	8.18522187
759.91	8.24879745
760.658	8.29143777
761.406	8.34741326
762.154	8.34597212
762.902	8.41293869
763.65	8.42457835
764.397	8.70141136
765.145	8.62281997
765.892	8.58455394
766.64	8.56387629
767.387	8.59840382
768.134	8.57730222
768.881	8.7746476
769.628	8.76353661
770.375	8.73107836
771.122	8.78233827
771.869	8.93704877
772.616	8.80632824
773.362	8.91774039
774.109	9.03784522
774.855	9.06509405
775.602	9.04553593
776.348	9.00612952
777.094	9.16651271
777.841	9.21611344
778.587	9.11548464
779.333	9.17754134
780.078	9.2340747
780.824	9.37923019
781.57	9.31445724
782.316	9.47036343
783.061	9.3641116
783.807	9.4680406
784.552	9.5702583
785.297	9.64719511
786.043	9.91436963
786.788	9.8485222
787.533	9.72583741
788.278	9.63238059
789.023	9.89985772
789.768	10.01496291
790.512	9.94624052
791.257	10.22150785
792.002	10.20699674
792.746	10.27582855
793.491	10.2875175
794.235	10.64686219
794.979	10.49891792
795.723	10.8162612
796.467	10.7940879
797.211	10.88774413
797.955	10.82698618
798.699	11.13606211
799.443	10.87251899
800.187	11.28235892
800.93	11.26645532
801.674	11.38604908
802.417	11.72007386
803.16	11.45453488
803.904	11.57865776
804.647	11.78005488
805.39	12.14736025
806.133	12.36934552
806.876	12.23491253
807.619	12.85706906
808.361	12.65169464
809.104	12.69315343
809.847	12.74539365
810.589	13.1113609
811.332	12.85480274
812.074	13.54869902
812.816	13.62439203
813.558	14.30515992
814.301	13.71621836
815.043	13.87685193
815.784	14.00753196
816.526	14.25560921
817.268	14.16441637
818.01	14.46907718
818.751	14.54942944
819.493	14.68513102
820.234	15.1222976
820.976	15.51147213
821.717	15.78625135
822.458	15.68178105
823.199	15.88864236
823.94	16.11918375
824.681	15.81321577
825.422	15.90231574
826.163	15.99104208
826.903	16.26441044
827.644	16.49856505
828.385	16.8682151
829.125	17.29813241
829.865	16.92484686
830.606	17.06213154
831.346	17.30947649
832.086	17.68240642
832.826	17.97406403
833.566	18.17606297
834.306	18.77188351
835.046	19.08273838
835.785	19.22498635
836.525	19.18710586
837.264	19.23343724
838.004	19.27922163
838.743	19.92604799
839.482	19.78471431
840.222	20.43707795
840.961	20.89052843
841.7	20.62114761
842.439	21.20177416
843.177	20.64431315
843.916	20.98938332
844.655	21.58104441
845.394	21.75099216
846.132	23.4243455
846.87	23.41118331
847.609	23.32749044
848.347	24.16841603
849.085	23.869327
849.823	23.18722722
850.561	24.5631731
851.299	25.24116133
852.037	24.91152307
852.775	25.93795258
853.513	24.41507281
854.25	26.26749416
854.988	26.08912687
855.725	26.66308164
856.462	26.2023881
857.2	26.30151151
857.937	27.38983833
858.674	26.87807598
859.411	27.58684925
860.148	26.68930144
860.885	28.05468006
861.622	27.95072253
862.358	27.94977176
863.095	28.74028384
863.831	29.40001483
864.568	29.51917873
865.304	28.42270574
866.04	29.19554223
866.776	30.04178256
867.513	29.99308925
868.249	30.69042061
868.984	30.9964297
869.72	30.7402806
870.456	31.53756479
871.192	31.68258066
871.927	32.38742637
872.663	32.25644366
873.398	31.67351529
874.134	31.78256385
874.869	32.76278789
875.604	33.12207233
876.339	32.84781821
877.074	33.49060018
877.809	33.3422859
878.544	34.02726928
879.278	34.41633748
880.013	34.73334191
880.748	34.9684705
881.482	35.13919676
882.217	35.23119025
882.951	35.04618813
883.685	34.89056711
884.419	34.55641658
885.153	35.02677918
885.887	35.16943936
886.621	34.93986427
887.355	35.63175275
888.089	35.21781094
888.822	36.23639415
889.556	36.1648503
890.289	36.78246055
891.023	36.61740542
891.756	37.39228436
892.489	37.53038817
893.222	37.14448651
893.955	37.93978506
894.688	38.27049844
895.421	38.5621602
896.154	38.12116878
896.887	38.03030228
897.619	38.1302517
898.352	38.23882261
899.084	38.08210761
899.817	38.91871366
900.549	38.93090348
901.281	38.88955058
902.013	39.44805242
902.745	39.23659295
903.477	39.19199082
904.209	40.35461965
904.941	40.67422658
905.673	40.60564371
906.404	39.80113933
907.136	39.62913174
907.867	39.8428735
908.599	39.94083635
909.33	40.86602409
910.061	41.17777311
910.792	40.56561453
911.523	40.45287817
912.254	40.93106997
912.985	41.51261268
913.716	42.25835391
914.446	41.32485622
915.177	41.92378417
915.908	42.23077176
916.638	42.39821163
917.368	42.2238642
918.099	41.79017307
918.829	41.6732471
919.559	42.01186036
920.289	41.8755253
921.019	42.16521768
921.748	42.35568339
922.478	42.16808055
923.208	42.78282015
923.937	42.9224572
924.667	42.55497003
925.396	43.16911395
926.126	42.70014841
926.855	41.86701464
927.584	43.30132684
928.313	43.04892856
929.042	43.27828634
929.771	43.64525478
930.5	43.94837189
931.228	44.14902851
931.957	42.86223351
932.686	44.50976453
933.414	43.80805141
934.142	44.95556572
934.871	44.66652679
935.599	45.01761007
936.327	44.79042617
937.055	45.12780231
937.783	45.19108792
938.511	44.66251008
939.239	45.09189574
939.966	44.72078291
940.694	44.30936751
941.421	44.96771811
942.149	44.49073925
942.876	45.29561437
943.603	45.22511173
944.331	45.38564613
945.058	46.18121674
945.785	45.14139246
946.512	45.43229388
947.239	46.09582344
947.965	45.45570597
948.692	45.83968426
949.418	46.20492915
950.145	46.5505796
950.871	46.36300384
951.598	46.4540498
952.324	46.52570386
953.05	46.47114136
953.776	46.48200904
954.502	47.03683642
955.228	46.772701
955.954	47.12350802
956.68	46.828694
957.405	47.1534699
958.131	47.45235155
958.856	47.97042308
959.582	47.39376824
960.307	48.24222247
961.032	47.37381872
961.757	46.46231448
962.482	48.82987624
963.207	47.69348725
963.932	48.24070496
964.657	48.62088592
965.381	48.30184532
966.106	48.14994996
966.831	48.51343058
967.555	48.5168639
968.279	48.52520482
969.004	49.04065821
969.728	49.05136486
970.452	49.03178213
971.176	48.96254819
971.9	48.98629809
972.624	48.8499506
973.347	48.54461113
974.071	49.06382739
974.794	48.9470761
975.518	49.59946097
976.241	49.30898855
976.965	49.53571655
977.688	49.54435856
978.411	49.93564678
979.134	50.42986534
979.857	50.50448307
980.58	50.32263848
981.303	49.75980019
982.025	49.35567375
982.748	49.45125449
983.471	49.50839664
984.193	49.30458555
984.915	49.64626175
985.638	49.48088492
986.36	49.2667556
987.082	49.54986815
987.804	50.25687804
988.526	50.22068902
989.248	60.81087203
989.969	85.29413245
990.691	89.99999063
991.413	3049.99375547
