Data from Transmission_19.txt Node
Date: Mon Mar 28 10:47:34 CEST 2022
User: Ocean Optics
Spectrometer: QEP02356
Trigger mode: 4
Integration Time (sec): 1.000000E-1
Scans to average: 30
Electric dark correction enabled: true
Nonlinearity correction enabled: true
Boxcar width: 0
XAxis mode: Wavelengths
Number of Pixels in Spectrum: 1044
>>>>>Begin Spectral Data<<<<<
194.596	-19.77714893
195.4	651.51501432
196.203	-25.33331956
197.007	-2.583025
197.81	1.89353268
198.613	1.69330142
199.417	1.54504725
200.22	1.70470054
201.023	1.49109955
201.826	1.76943802
202.629	1.51581788
203.432	1.82655045
204.235	1.31820378
205.038	1.62190928
205.84	0.69448864
206.643	1.11525059
207.445	1.19267502
208.248	1.02970393
209.05	1.11082439
209.853	1.0772042
210.655	0.89301834
211.457	0.94513208
212.259	0.85117142
213.061	0.94287956
213.863	0.80165497
214.665	0.70635318
215.467	0.8417459
216.269	0.70019185
217.07	1.02135511
217.872	0.65938909
218.674	0.70201473
219.475	0.8428295
220.277	0.64784775
221.078	0.63745076
221.879	0.61967063
222.68	0.50659244
223.481	0.48156807
224.283	0.43972011
225.084	0.35657792
225.884	0.37302826
226.685	0.27736925
227.486	0.19044699
228.287	0.13522969
229.087	0.10757093
229.888	0.08553577
230.688	0.08058139
231.489	0.09512524
232.289	0.09705925
233.089	0.17023032
233.89	0.18804026
234.69	0.17443583
235.49	0.16205207
236.29	0.17949465
237.09	0.23598855
237.89	0.19787857
238.689	0.20073375
239.489	0.22785428
240.289	0.22009138
241.088	0.1794184
241.888	0.12958472
242.687	0.14062916
243.486	0.09264689
244.286	0.07051387
245.085	0.09434087
245.884	0.1113054
246.683	0.13679827
247.482	0.084543
248.281	0.05696428
249.08	0.05328838
249.878	0.06503418
250.677	0.10096639
251.476	0.12578812
252.274	0.16376614
253.073	0.12302304
253.871	0.09839472
254.67	0.11143643
255.468	0.16067553
256.266	0.17780802
257.064	0.1581282
257.862	0.1298598
258.66	0.17188431
259.458	0.12282306
260.256	0.08368582
261.054	0.06112417
261.851	0.04034287
262.649	0.05773895
263.446	0.07914455
264.244	0.10531125
265.041	0.08077816
265.839	0.13201489
266.636	0.12718971
267.433	0.09877743
268.23	0.08250285
269.027	0.10074275
269.824	0.06550673
270.621	0.08327012
271.418	0.12279153
272.215	0.07330542
273.011	0.09785528
273.808	0.07042229
274.604	0.04936502
275.401	0.05566229
276.197	0.09687094
276.994	0.12267088
277.79	0.09845283
278.586	0.08249771
279.382	0.10854659
280.178	0.07874696
280.974	0.11075147
281.77	0.09180144
282.566	0.08893201
283.361	0.05647309
284.157	0.07449191
284.953	0.11473148
285.748	0.09194216
286.544	0.07214496
287.339	0.06021729
288.134	0.06170525
288.93	0.0829191
289.725	0.08833352
290.52	0.08756047
291.315	0.08135044
292.11	0.0624622
292.905	0.0933198
293.699	0.0911585
294.494	0.09903913
295.289	0.06860019
296.083	0.06278719
296.878	0.09833812
297.672	0.08639127
298.467	0.07739568
299.261	0.05153909
300.055	0.07370381
300.849	0.09882568
301.643	0.09276384
302.437	0.07841771
303.231	0.09725422
304.025	0.07996006
304.819	0.10887352
305.612	0.09722946
306.406	0.10026151
307.2	0.08904922
307.993	0.11244103
308.786	0.09386253
309.58	0.0911512
310.373	0.11249159
311.166	0.08869916
311.959	0.07864905
312.752	0.09478073
313.545	0.08396067
314.338	0.08385619
315.131	0.04865424
315.924	0.0846585
316.716	0.10711698
317.509	0.09263155
318.302	0.09859479
319.094	0.1199264
319.886	0.08292055
320.679	0.08486181
321.471	0.07415055
322.263	0.10146635
323.055	0.08974393
323.847	0.08254448
324.639	0.08320367
325.431	0.08042672
326.223	0.06957369
327.015	0.07140928
327.806	0.08007036
328.598	0.05138058
329.389	0.0805754
330.181	0.07593873
330.972	0.06810211
331.763	0.06086337
332.555	0.08609925
333.346	0.0654478
334.137	0.05362268
334.928	0.05105158
335.719	0.04528333
336.51	0.06225371
337.3	0.0435839
338.091	0.04306906
338.882	0.04942492
339.672	0.04248878
340.463	0.0540486
341.253	0.04329346
342.043	0.03959485
342.834	0.03876024
343.624	0.03409649
344.414	0.03030475
345.204	0.0427867
345.994	0.04456348
346.784	0.03877322
347.574	0.03275419
348.363	0.03313656
349.153	0.04198182
349.943	0.03409711
350.732	0.02813659
351.521	0.03676856
352.311	0.03630662
353.1	0.04539905
353.889	0.03585057
354.678	0.04602954
355.468	0.03459117
356.257	0.03068447
357.045	0.0450312
357.834	0.04043362
358.623	0.02484771
359.412	0.03274151
360.2	0.0289062
360.989	0.04504082
361.777	0.06234428
362.566	0.03549948
363.354	0.03916968
364.142	0.02967328
364.931	0.03424589
365.719	0.03690623
366.507	0.03399354
367.295	0.03903731
368.083	0.04563057
368.87	0.04351993
369.658	0.05970126
370.446	0.0670275
371.233	0.05446048
372.021	0.04313499
372.808	0.06063021
373.596	0.05988555
374.383	0.06111149
375.17	0.04598544
375.957	0.06725955
376.745	0.07344171
377.532	0.07125602
378.318	0.05764701
379.105	0.06198232
379.892	0.07260103
380.679	0.07189652
381.465	0.07082868
382.252	0.079522
383.038	0.05592663
383.825	0.0754134
384.611	0.077374
385.397	0.08597979
386.184	0.12174438
386.97	0.17632419
387.756	0.16275072
388.542	0.08651705
389.328	0.06937709
390.113	0.05524732
390.899	0.0594017
391.685	0.06646374
392.47	0.06242785
393.256	0.05487417
394.041	0.05179912
394.827	0.06552605
395.612	0.05296635
396.397	0.04840794
397.182	0.05923836
397.967	0.05601463
398.752	0.05152167
399.537	0.05905924
400.322	0.05639643
401.107	0.06810137
401.891	0.09167223
402.676	0.1219387
403.461	0.10525964
404.245	0.0685155
405.029	0.0571194
405.814	0.04564283
406.598	0.0490807
407.382	0.04431885
408.166	0.04386804
408.95	0.04730306
409.734	0.04331426
410.518	0.03941241
411.302	0.04025428
412.086	0.04197
412.869	0.03884596
413.653	0.03745235
414.436	0.03643995
415.22	0.03410186
416.003	0.04092328
416.786	0.03270163
417.569	0.03345892
418.353	0.02766213
419.136	0.03235601
419.919	0.02115313
420.701	0.02264598
421.484	0.02259949
422.267	0.0173403
423.05	0.01784457
423.832	0.01860596
424.615	0.01709681
425.397	0.01820903
426.18	0.01530739
426.962	0.01376121
427.744	0.01824718
428.526	0.02071999
429.308	0.02011248
430.09	0.02263038
430.872	0.021875
431.654	0.02427697
432.436	0.0222392
433.217	0.027142
433.999	0.02037511
434.781	0.01929653
435.562	0.02034894
436.343	0.01874547
437.125	0.01915192
437.906	0.02294108
438.687	0.01945613
439.468	0.01978623
440.249	0.0137707
441.03	0.01664291
441.811	0.01564619
442.592	0.01457156
443.372	0.01588942
444.153	0.01922911
444.934	0.01506141
445.714	0.01873218
446.494	0.01839209
447.275	0.01303333
448.055	0.01458706
448.835	0.01336431
449.615	0.01207938
450.395	0.01298941
451.175	0.0184206
451.955	0.01862832
452.735	0.01816918
453.515	0.01860774
454.294	0.01707512
455.074	0.01755505
455.853	0.01871354
456.633	0.01869584
457.412	0.02220761
458.191	0.02160375
458.971	0.01818721
459.75	0.01935408
460.529	0.01783443
461.308	0.01869573
462.087	0.01536073
462.865	0.01527371
463.644	0.01693195
464.423	0.02066475
465.201	0.02202627
465.98	0.0231454
466.758	0.02405854
467.537	0.02082294
468.315	0.02043696
469.093	0.02214571
469.871	0.01839197
470.649	0.02287308
471.427	0.02181149
472.205	0.02320591
472.983	0.02596881
473.761	0.02289619
474.538	0.02286003
475.316	0.0223031
476.093	0.02082936
476.871	0.02563562
477.648	0.02669677
478.426	0.02238027
479.203	0.02382535
479.98	0.02220312
480.757	0.02282076
481.534	0.01996536
482.311	0.02386194
483.088	0.01936414
483.864	0.01805039
484.641	0.01503404
485.418	0.01032078
486.194	0.00798529
486.971	0.00905309
487.747	0.01318704
488.523	0.01651149
489.3	0.01227031
490.076	0.01354993
490.852	0.0149229
491.628	0.01730751
492.404	0.02423125
493.179	0.02300759
493.955	0.01690031
494.731	0.01967298
495.506	0.02154962
496.282	0.02130819
497.057	0.02319115
497.833	0.0314697
498.608	0.04809035
499.383	0.08903434
500.159	0.10466601
500.934	0.0647513
501.709	0.02579793
502.483	0.02363034
503.258	0.02336263
504.033	0.02352411
504.808	0.02318053
505.582	0.02293142
506.357	0.02294166
507.131	0.02108466
507.906	0.0246864
508.68	0.02681237
509.454	0.02242642
510.228	0.02267171
511.002	0.01920677
511.776	0.0213642
512.55	0.02553065
513.324	0.0237701
514.098	0.02440107
514.872	0.02592765
515.645	0.0277544
516.419	0.02858433
517.192	0.02809285
517.966	0.02777815
518.739	0.02586539
519.512	0.02590216
520.285	0.02370596
521.058	0.02534292
521.831	0.02680448
522.604	0.02877558
523.377	0.03445761
524.15	0.03560283
524.923	0.03290879
525.695	0.03408872
526.468	0.04112057
527.24	0.02994231
528.012	0.0316386
528.785	0.02942377
529.557	0.0250867
530.329	0.02094063
531.101	0.0192454
531.873	0.02487313
532.645	0.03419323
533.417	0.04061573
534.189	0.0400382
534.96	0.03900017
535.732	0.03872297
536.503	0.04673933
537.275	0.0627204
538.046	0.05932831
538.818	0.05999334
539.589	0.0716783
540.36	0.08570745
541.131	0.0957437
541.902	0.09125854
542.673	0.07272628
543.444	0.06353604
544.214	0.07040568
544.985	0.09088457
545.756	0.11327533
546.526	0.12981575
547.297	0.14433476
548.067	0.14640607
548.837	0.14901527
549.608	0.17112438
550.378	0.20743122
551.148	0.24294495
551.918	0.26770312
552.688	0.278491
553.457	0.29397353
554.227	0.28830422
554.997	0.29913924
555.766	0.32359124
556.536	0.36704073
557.305	0.40700434
558.075	0.44170374
558.844	0.47107522
559.613	0.50409295
560.382	0.54011352
561.151	0.57688327
561.92	0.62530476
562.689	0.65334947
563.458	0.68377316
564.227	0.75337184
564.995	0.83096263
565.764	0.89916708
566.532	0.94643764
567.301	0.95922507
568.069	0.96791043
568.837	1.04983874
569.606	1.23246933
570.374	1.44417021
571.142	1.68804278
571.91	2.05578454
572.678	2.75312147
573.445	4.08427179
574.213	6.7024077
574.981	12.67677974
575.748	25.84084951
576.516	47.31223325
577.283	70.33617279
578.05	87.24872131
578.818	94.91919517
579.585	95.76184152
580.352	95.43194071
581.119	95.25933851
581.886	95.73582621
582.653	96.35037872
583.419	97.10864936
584.186	97.61517359
584.953	97.47617672
585.719	96.49763974
586.486	95.26471627
587.252	94.61337053
588.018	95.33036633
588.785	96.5074107
589.551	97.60697563
590.317	97.95345283
591.083	97.53334374
591.849	97.06702003
592.615	96.58929278
593.38	96.12463494
594.146	95.48593304
594.912	94.25709146
595.677	93.13975256
596.443	92.66128664
597.208	93.57839834
597.973	95.16912862
598.738	96.4113283
599.504	96.81087392
600.269	96.10417607
601.034	95.08865924
601.798	94.95741236
602.563	95.79408305
603.328	96.8856622
604.093	97.29490215
604.857	96.94758358
605.622	96.51309133
606.386	96.4058922
607.151	96.62293267
607.915	96.50813835
608.679	95.43047776
609.443	94.09208249
610.207	93.50614178
610.971	94.1900416
611.735	95.31327461
612.499	96.26976648
613.262	96.75512669
614.026	96.46791866
614.79	96.37963184
615.553	96.63283115
616.316	96.85069833
617.08	96.90822252
617.843	96.66629478
618.606	96.20718437
619.369	95.87821332
620.132	95.75572962
620.895	96.02482576
621.658	96.18920487
622.421	96.04195452
623.183	95.01382585
623.946	91.30861468
624.709	82.15831252
625.471	66.16333733
626.233	46.15857697
626.996	28.22676588
627.758	15.89867187
628.52	8.9648914
629.282	5.35703914
630.044	3.41511302
630.806	2.29370728
631.568	1.62183543
632.329	1.24841684
633.091	1.01059032
633.853	0.85869198
634.614	0.74770096
635.376	0.63848694
636.137	0.56958624
636.898	0.53567856
637.659	0.509752
638.42	0.49408036
639.181	0.45758093
639.942	0.4440378
640.703	0.42109939
641.464	0.40481543
642.225	0.39196342
642.985	0.37254561
643.746	0.365867
644.506	0.34127799
645.267	0.32239481
646.027	0.31633789
646.787	0.3012967
647.547	0.2780258
648.307	0.25445394
649.067	0.24393538
649.827	0.23848357
650.587	0.22888515
651.347	0.22510034
652.106	0.21354657
652.866	0.20364307
653.626	0.19568205
654.385	0.18801569
655.144	0.18208056
655.904	0.18451764
656.663	0.1816376
657.422	0.17535355
658.181	0.16800617
658.94	0.16304818
659.699	0.14696803
660.458	0.1299369
661.216	0.11569031
661.975	0.1129216
662.733	0.1236862
663.492	0.12836789
664.25	0.13019727
665.009	0.13268488
665.767	0.12897767
666.525	0.13065279
667.283	0.126964
668.041	0.1164751
668.799	0.11611851
669.557	0.11245178
670.314	0.10601227
671.072	0.10460406
671.83	0.1046167
672.587	0.09982221
673.345	0.10410561
674.102	0.10535399
674.859	0.09999164
675.616	0.09658472
676.374	0.10200977
677.131	0.0995927
677.888	0.09340438
678.644	0.09406397
679.401	0.08827977
680.158	0.08975831
680.914	0.08106865
681.671	0.0743604
682.428	0.06967374
683.184	0.07030753
683.94	0.07408529
684.696	0.075808
685.453	0.07059209
686.209	0.0754125
686.965	0.07777432
687.721	0.07326691
688.476	0.07439046
689.232	0.07176595
689.988	0.06886631
690.743	0.07150672
691.499	0.07335145
692.254	0.07614049
693.01	0.07958705
693.765	0.08437021
694.52	0.08361729
695.275	0.08293938
696.03	0.0844436
696.785	0.08344727
697.54	0.08351509
698.295	0.07995828
699.049	0.07340054
699.804	0.06594403
700.559	0.05290561
701.313	0.05691779
702.067	0.06607089
702.822	0.07612714
703.576	0.0790164
704.33	0.0838304
705.084	0.08931682
705.838	0.09360649
706.592	0.09303004
707.346	0.09287152
708.099	0.09049238
708.853	0.0870781
709.607	0.08052106
710.36	0.08704194
711.113	0.07579037
711.867	0.07521165
712.62	0.07555884
713.373	0.07162558
714.126	0.07158585
714.879	0.07372859
715.632	0.07889173
716.385	0.08119275
717.138	0.08119222
717.89	0.07639935
718.643	0.07972363
719.396	0.08780957
720.148	0.08770693
720.9	0.09709025
721.653	0.09566624
722.405	0.10014895
723.157	0.09700938
723.909	0.09774748
724.661	0.09396042
725.413	0.09854498
726.165	0.09392047
726.916	0.09330253
727.668	0.0905506
728.419	0.08469529
729.171	0.08608967
729.922	0.08005571
730.673	0.08426722
731.425	0.07475378
732.176	0.0733366
732.927	0.08014588
733.678	0.07582584
734.429	0.07199446
735.18	0.07473848
735.93	0.07514153
736.681	0.07657532
737.431	0.08309647
738.182	0.08983423
738.932	0.08795304
739.683	0.08308862
740.433	0.07774111
741.183	0.07036099
741.933	0.06965448
742.683	0.07594929
743.433	0.07867071
744.183	0.08209138
744.933	0.07918354
745.682	0.0808608
746.432	0.08187412
747.181	0.0864058
747.931	0.08382714
748.68	0.08053293
749.429	0.0816364
750.179	0.07627661
750.928	0.08034498
751.677	0.07212712
752.426	0.0766075
753.174	0.07497456
753.923	0.07227951
754.672	0.07281766
755.42	0.07256616
756.169	0.07437394
756.917	0.06946104
757.666	0.07099901
758.414	0.06950169
759.162	0.06845088
759.91	0.06525028
760.658	0.06762417
761.406	0.06333593
762.154	0.06287561
762.902	0.06533343
763.65	0.0636833
764.397	0.05831441
765.145	0.05475581
765.892	0.04599761
766.64	0.04545175
767.387	0.04436203
768.134	0.05291783
768.881	0.06086976
769.628	0.06583043
770.375	0.06910911
771.122	0.06731599
771.869	0.07424542
772.616	0.06969758
773.362	0.08027625
774.109	0.07746028
774.855	0.08246827
775.602	0.08065599
776.348	0.08466297
777.094	0.08464913
777.841	0.08029227
778.587	0.08330613
779.333	0.07208791
780.078	0.07832265
780.824	0.08512452
781.57	0.0725271
782.316	0.075204
783.061	0.07368965
783.807	0.07315248
784.552	0.07949869
785.297	0.08021438
786.043	0.081665
786.788	0.09032189
787.533	0.08046527
788.278	0.08949404
789.023	0.07588012
789.768	0.06551503
790.512	0.0580147
791.257	0.05091156
792.002	0.06013732
792.746	0.06653954
793.491	0.06632007
794.235	0.07516468
794.979	0.07151922
795.723	0.0671755
796.467	0.07295768
797.211	0.07252068
797.955	0.09015987
798.699	0.09568434
799.443	0.07992197
800.187	0.06269579
800.93	0.05810956
801.674	0.05483922
802.417	0.0579488
803.16	0.05649597
803.904	0.06396704
804.647	0.05858038
805.39	0.0601208
806.133	0.05504434
806.876	0.05489445
807.619	0.05251812
808.361	0.05540786
809.104	0.05486064
809.847	0.05473294
810.589	0.05313195
811.332	0.05449495
812.074	0.05896434
812.816	0.05533874
813.558	0.05053634
814.301	0.05713731
815.043	0.04671409
815.784	0.04551484
816.526	0.04540382
817.268	0.04860363
818.01	0.04372406
818.751	0.04161028
819.493	0.04703636
820.234	0.04641839
820.976	0.03492961
821.717	0.02344868
822.458	0.01963226
823.199	0.01469125
823.94	0.00658767
824.681	0.00373356
825.422	0.00414847
826.163	0.00646361
826.903	0.01108156
827.644	0.01408871
828.385	0.01073687
829.125	0.00793625
829.865	0.00752436
830.606	0.01015009
831.346	0.01852309
832.086	0.02477005
832.826	0.02796757
833.566	0.02933584
834.306	0.02621801
835.046	0.01840908
835.785	0.00985197
836.525	0.00749985
837.264	0.01208974
838.004	0.01663485
838.743	0.0250233
839.482	0.03262943
840.222	0.03165643
840.961	0.03781216
841.7	0.03097966
842.439	0.02325803
843.177	0.01900804
843.916	0.02646753
844.655	0.03179119
845.394	0.03685947
846.132	0.04734704
846.87	0.04163899
847.609	0.04084775
848.347	0.0468901
849.085	0.04194941
849.823	0.04428815
850.561	0.02899908
851.299	0.04520115
852.037	0.03315715
852.775	0.03055499
853.513	0.04497097
854.25	0.03937973
854.988	0.02642007
855.725	0.02478427
856.462	0.03242655
857.2	0.03606329
857.937	0.03216545
858.674	0.03157625
859.411	0.02711517
860.148	0.0292772
860.885	0.03246137
861.622	0.02892993
862.358	0.04015837
863.095	0.0297156
863.831	0.02365937
864.568	0.01791122
865.304	0.01718953
866.04	0.01675578
866.776	0.01976581
867.513	0.01977674
868.249	0.01589112
868.984	0.01146881
869.72	0.01590146
870.456	0.01380903
871.192	0.01572936
871.927	0.0049414
872.663	0.00602831
873.398	0.01495032
874.134	0.01062191
874.869	0.02179703
875.604	0.01409442
876.339	0.00678501
877.074	0.01281936
877.809	0.00769655
878.544	0.00921342
879.278	0.00805809
880.013	0.00535412
880.748	0.00454889
881.482	0.00227955
882.217	0.00191225
882.951	0.00113766
883.685	0.00114669
884.419	0.00098597
885.153	0.00188756
885.887	0.00261005
886.621	0.00366523
887.355	0.00371204
888.089	0.00291825
888.822	0.0052691
889.556	0.00690776
890.289	0.00554137
891.023	0.00873305
891.756	0.00612682
892.489	0.00692208
893.222	0.00601022
893.955	0.00278058
894.688	0.00440122
895.421	0.00387441
896.154	0.00227385
896.887	0.001606
897.619	0.00343311
898.352	0.00379063
899.084	0.00539102
899.817	0.00535337
900.549	0.0077699
901.281	0.00899083
902.013	0.00779806
902.745	0.01129916
903.477	0.01515588
904.209	0.01215134
904.941	0.01348256
905.673	0.00974025
906.404	0.01063564
907.136	0.0116139
907.867	0.01245445
908.599	0.01330258
909.33	0.0073041
910.061	0.01617081
910.792	0.01342735
911.523	0.00837186
912.254	0.01354268
912.985	0.01370954
913.716	0.00530421
914.446	0.00280926
915.177	0.00710518
915.908	0.00410891
916.638	0.00198709
917.368	0.00172734
918.099	0.00141425
918.829	0.00211077
919.559	0.00369383
920.289	0.00547536
921.019	0.0043817
921.748	0.00315774
922.478	0.00799525
923.208	0.00973977
923.937	0.01415425
924.667	0.01439761
925.396	0.02167189
926.126	0.01906929
926.855	0.02207953
927.584	0.02996891
928.313	0.03037287
929.042	0.03679312
929.771	0.03903625
930.5	0.02601658
931.228	0.03443188
931.957	0.02311954
932.686	0.03182904
933.414	0.04307951
934.142	0.03231257
934.871	0.03757433
935.599	0.05324784
936.327	0.03883648
937.055	0.04173151
937.783	0.03682911
938.511	0.02940179
939.239	0.02740107
939.966	0.02400714
940.694	0.04448105
941.421	0.05685596
942.149	0.06185409
942.876	0.05433996
943.603	0.07239224
944.331	0.0620867
945.058	0.06394556
945.785	0.05651404
946.512	0.06421679
947.239	0.05939565
947.965	0.06943563
948.692	0.07400383
949.418	0.06948143
950.145	0.07450066
950.871	0.05195135
951.598	0.05947633
952.324	0.05237203
953.05	0.04452464
953.776	0.06292116
954.502	0.07644355
955.228	0.07523765
955.954	0.11756613
956.68	0.10971129
957.405	0.12817659
958.131	0.13556661
958.856	0.13126878
959.582	0.14320031
960.307	0.13203991
961.032	0.15632561
961.757	0.15419285
962.482	0.16338066
963.207	0.15061302
963.932	0.16466893
964.657	0.17249499
965.381	0.15024281
966.106	0.168755
966.831	0.14652314
967.555	0.13135944
968.279	0.12507812
969.004	0.11660495
969.728	0.10723153
970.452	0.10170264
971.176	0.09518194
971.9	0.09714
972.624	0.11237367
973.347	0.10036521
974.071	0.10826276
974.794	0.12608422
975.518	0.13644802
976.241	0.13956431
976.965	0.13196926
977.688	0.11496823
978.411	0.11366345
979.134	0.08398775
979.857	0.06248933
980.58	0.03540862
981.303	0.030136
982.025	0.05027062
982.748	0.08064065
983.471	0.11387994
984.193	0.15606122
984.915	0.18950049
985.638	0.20636581
986.36	0.25230117
987.082	0.2602424
987.804	0.26796685
988.526	0.26595547
989.248	-10.89898337
989.969	115.49816059
990.691	96.49122829
991.413	-9.85915404
